Stopping power dEdx from Ionisation for mu- Z = 0 in G4_Si, process name: muIoni
E [MeV]	dEdx [MeV/mm]
0.001	29.3193
0.00100577	29.5517
0.00101158	29.7817
0.00101742	30.0095
0.00102329	30.2349
0.0010292	30.4582
0.00103514	30.6793
0.00104112	30.8982
0.00104713	31.1149
0.00105317	31.3296
0.00105925	31.5423
0.00106537	31.7529
0.00107152	31.9616
0.00107771	32.1683
0.00108393	32.3818
0.00109018	32.5958
0.00109648	32.7826
0.00110281	32.9224
0.00110917	33.0613
0.00111558	33.1992
0.00112202	33.3362
0.0011285	33.4723
0.00113501	33.6075
0.00114156	33.7419
0.00114815	33.8754
0.00115478	34.0082
0.00116145	34.1404
0.00116815	34.2723
0.0011749	34.4035
0.00118168	34.5339
0.0011885	34.6636
0.00119536	34.7925
0.00120226	34.9208
0.00120921	35.0484
0.00121619	35.1784
0.00122321	35.3622
0.00123027	35.5443
0.00123737	35.7287
0.00124451	35.914
0.0012517	36.0978
0.00125893	36.2801
0.00126619	36.461
0.0012735	36.6404
0.00128086	36.8183
0.00128825	36.9949
0.00129569	37.1702
0.00130317	37.3441
0.00131069	37.5166
0.00131826	37.6879
0.00132587	37.8579
0.00133352	38.0267
0.00134122	38.1943
0.00134896	38.3607
0.00135675	38.5266
0.00136458	38.6919
0.00137246	38.8561
0.00138038	39.0191
0.00138835	39.1815
0.00139637	39.3453
0.00140443	39.5081
0.00141254	39.6698
0.00142069	39.8305
0.00142889	39.9902
0.00143714	40.1489
0.00144544	40.3067
0.00145378	40.4635
0.00146218	40.6247
0.00147062	40.7936
0.00147911	40.9615
0.00148765	41.1285
0.00149624	41.2945
0.00150487	41.4596
0.00151356	41.6238
0.0015223	41.7871
0.00153109	41.9496
0.00153993	42.1112
0.00154882	42.2288
0.00155776	42.3377
0.00156675	42.4464
0.0015758	42.555
0.00158489	42.6634
0.00159404	42.7716
0.00160325	42.8797
0.0016125	42.9876
0.00162181	43.0954
0.00163117	43.2031
0.00164059	43.3106
0.00165006	43.418
0.00165959	43.5253
0.00166917	43.6325
0.0016788	43.7396
0.0016885	43.8466
0.00169824	43.9536
0.00170805	44.0656
0.00171791	44.1811
0.00172783	44.2965
0.0017378	44.4117
0.00174783	44.5295
0.00175792	44.6473
0.00176807	44.765
0.00177828	44.8826
0.00178855	45.0001
0.00179887	45.1175
0.00180926	45.2348
0.0018197	45.352
0.00183021	45.4692
0.00184077	45.5863
0.0018514	45.7033
0.00186209	45.8203
0.00187284	45.9372
0.00188365	46.0541
0.00189452	46.1709
0.00190546	46.2877
0.00191646	46.4044
0.00192752	46.5207
0.00193865	46.6306
0.00194984	46.743
0.0019611	46.8583
0.00197242	46.9738
0.00198381	47.0892
0.00199526	47.2047
0.00200678	47.3203
0.00201837	47.4359
0.00203002	47.5516
0.00204174	47.6673
0.00205353	47.783
0.00206538	47.8989
0.0020773	48.0148
0.0020893	48.1307
0.00210136	48.2467
0.00211349	48.3628
0.00212569	48.4789
0.00213796	48.5951
0.0021503	48.7114
0.00216272	48.8278
0.0021752	48.9442
0.00218776	49.0607
0.00220039	49.1795
0.00221309	49.2984
0.00222587	49.4174
0.00223872	49.5365
0.00225165	49.6557
0.00226464	49.7749
0.00227772	49.8942
0.00229087	50.0135
0.00230409	50.1329
0.00231739	50.2644
0.00233077	50.415
0.00234423	50.5652
0.00235776	50.715
0.00237137	50.8645
0.00238506	51.0137
0.00239883	51.1625
0.00241268	51.3109
0.00242661	51.4687
0.00244062	51.6063
0.00245471	51.7319
0.00246888	51.8575
0.00248313	51.9831
0.00249747	52.1086
0.00251189	52.2342
0.00252639	52.3598
0.00254097	52.4855
0.00255564	52.6111
0.0025704	52.7367
0.00258523	52.8623
0.00260016	52.988
0.00261517	53.1136
0.00263027	53.2392
0.00264545	53.3649
0.00266073	53.4906
0.00267609	53.6162
0.00269153	53.7419
0.00270707	53.8588
0.0027227	53.97
0.00273842	54.0813
0.00275423	54.1927
0.00277013	54.3042
0.00278612	54.4158
0.00280221	54.5274
0.00281838	54.6392
0.00283465	54.751
0.00285102	54.8629
0.00286748	54.9749
0.00288403	55.087
0.00290068	55.1995
0.00291743	55.3132
0.00293427	55.4271
0.00295121	55.541
0.00296825	55.6552
0.00298538	55.7694
0.00300262	55.8837
0.00301995	55.9982
0.00303739	56.1129
0.00305492	56.2226
0.00307256	56.3316
0.0030903	56.417
0.00310814	56.4686
0.00312608	56.5214
0.00314413	56.5755
0.00316228	56.6306
0.00318053	56.6869
0.0031989	56.7444
0.00321736	56.8029
0.00323594	56.8625
0.00325462	56.9232
0.00327341	56.9849
0.0032923	57.0477
0.00331131	57.1115
0.00333043	57.1763
0.00334965	57.2422
0.00336899	57.3089
0.00338844	57.3815
0.003408	57.4611
0.00342768	57.5415
0.00344747	57.6228
0.00346737	57.7049
0.00348739	57.7731
0.00350752	57.8414
0.00352777	57.9105
0.00354813	57.9806
0.00356862	58.0515
0.00358922	58.1232
0.00360994	58.1958
0.00363078	58.2692
0.00365174	58.347
0.00367282	58.4396
0.00369403	58.5327
0.00371535	58.6264
0.0037368	58.7206
0.00375837	58.8152
0.00378007	58.9104
0.00380189	59.006
0.00382384	59.1022
0.00384592	59.1988
0.00386812	59.2959
0.00389045	59.3949
0.00391291	59.4942
0.0039355	59.5938
0.00395822	59.6938
0.00398107	59.794
0.00400405	59.8946
0.00402717	59.9954
0.00405042	60.0966
0.0040738	60.198
0.00409732	60.2996
0.00412098	60.4016
0.00414477	60.5038
0.00416869	60.6062
0.00419276	60.709
0.00421697	60.8119
0.00424131	60.9151
0.0042658	61.0138
0.00429042	61.1062
0.00431519	61.1988
0.0043401	61.2917
0.00436516	61.3918
0.00439036	61.494
0.0044157	61.5964
0.0044412	61.699
0.00446684	61.8018
0.00449262	61.9048
0.00451856	62.008
0.00454465	62.1113
0.00457088	62.2148
0.00459727	62.3185
0.00462381	62.4224
0.0046505	62.4884
0.00467735	62.5537
0.00470435	62.6196
0.00473151	62.686
0.00475883	62.753
0.0047863	62.8205
0.00481393	62.8886
0.00484172	62.9579
0.00486968	63.0223
0.00489779	63.0654
0.00492606	63.1096
0.0049545	63.1547
0.0049831	63.2009
0.00501187	63.248
0.00504081	63.2961
0.00506991	63.3451
0.00509918	63.395
0.00512861	63.4458
0.00515822	63.4976
0.005188	63.5502
0.00521795	63.6037
0.00524807	63.658
0.00527837	63.7131
0.00530884	63.7691
0.00533949	63.8259
0.00537032	63.8834
0.00540132	63.9457
0.0054325	64.0256
0.00546387	64.106
0.00549541	64.1776
0.00552713	64.2467
0.00555904	64.3161
0.00559114	64.386
0.00562341	64.4562
0.00565588	64.5268
0.00568853	64.5978
0.00572137	64.6691
0.0057544	64.7408
0.00578762	64.8129
0.00582103	64.8922
0.00585464	64.9736
0.00588844	65.0552
0.00592243	65.1371
0.00595662	65.2192
0.00599101	65.3016
0.0060256	65.3842
0.00606038	65.467
0.00609537	65.5486
0.00613056	65.6282
0.00616595	65.7079
0.00620155	65.756
0.00623735	65.8042
0.00627336	65.8529
0.00630957	65.9021
0.006346	65.9518
0.00638263	66.0019
0.00641948	66.0526
0.00645654	66.1037
0.00649382	66.1552
0.00653131	66.2072
0.00656901	66.2596
0.00660693	66.3125
0.00664508	66.3657
0.00668344	66.4194
0.00672202	66.4734
0.00676083	66.528
0.00679986	66.5859
0.00683912	66.6442
0.0068786	66.7029
0.00691831	66.762
0.00695825	66.8244
0.00699842	66.8897
0.00703882	66.9552
0.00707946	67.0208
0.00712033	67.0866
0.00716143	67.1526
0.00720278	67.2187
0.00724436	67.2849
0.00728618	67.3512
0.00732825	67.3974
0.00737055	67.438
0.0074131	67.479
0.0074559	67.5204
0.00749894	67.562
0.00754223	67.604
0.00758578	67.6465
0.00762957	67.6903
0.00767361	67.7343
0.00771792	67.774
0.00776247	67.8029
0.00780728	67.8335
0.00785236	67.8645
0.00789769	67.896
0.00794328	67.9279
0.00798914	67.9602
0.00803526	67.993
0.00808165	68.0262
0.00812831	68.0597
0.00817523	68.0937
0.00822243	68.1281
0.0082699	68.1628
0.00831764	68.1979
0.00836566	68.2334
0.00841395	68.2692
0.00846253	68.3054
0.00851138	68.3419
0.00856052	68.3876
0.00860994	68.4335
0.00865964	68.4795
0.00870964	68.5232
0.00875992	68.5629
0.00881049	68.6027
0.00886135	68.6427
0.00891251	68.6829
0.00896396	68.7232
0.00901571	68.7638
0.00906776	68.8045
0.00912011	68.8456
0.00917276	68.8872
0.00922571	68.929
0.00927897	68.9554
0.00933254	68.9692
0.00938642	68.9833
0.00944061	68.9977
0.00949511	69.0124
0.00954993	69.0273
0.00960506	69.0425
0.00966051	69.0583
0.00971628	69.0802
0.00977237	69.0857
0.00982879	69.0875
0.00988553	69.0896
0.0099426	69.0921
0.01	69.095
0.0100577	69.0982
0.0101158	69.1019
0.0101742	69.1059
0.0102329	69.1102
0.010292	69.1149
0.0103514	69.12
0.0104112	69.1254
0.0104713	69.1311
0.0105317	69.1371
0.0105925	69.1435
0.0106537	69.1509
0.0107152	69.159
0.0107771	69.1674
0.0108393	69.159
0.0109018	69.1458
0.0109648	69.133
0.0110281	69.1208
0.0110917	69.1089
0.0111558	69.0973
0.0112202	69.086
0.011285	69.075
0.0113501	69.0642
0.0114156	69.0538
0.0114815	69.0436
0.0115478	69.0336
0.0116145	69.0385
0.0116815	69.0505
0.011749	69.0626
0.0118168	69.0747
0.011885	69.0868
0.0119536	69.099
0.0120226	69.1113
0.0120921	69.1235
0.0121619	69.1357
0.0122321	69.1348
0.0123027	69.1341
0.0123737	69.1236
0.0124451	69.1055
0.012517	69.0876
0.0125893	69.07
0.0126619	69.0526
0.012735	69.0355
0.0128086	69.0186
0.0128825	69.0019
0.0129569	68.9854
0.0130317	68.9691
0.0131069	68.953
0.0131826	68.9372
0.0132587	68.9215
0.0133352	68.906
0.0134122	68.8908
0.0134896	68.8757
0.0135675	68.863
0.0136458	68.8518
0.0137246	68.8417
0.0138038	68.8318
0.0138835	68.8206
0.0139637	68.7968
0.0140443	68.7732
0.0141254	68.7498
0.0142069	68.7267
0.0142889	68.7038
0.0143714	68.6811
0.0144544	68.6586
0.0145378	68.6363
0.0146218	68.6065
0.0147062	68.5624
0.0147911	68.5186
0.0148765	68.4752
0.0149624	68.4321
0.0150487	68.3893
0.0151356	68.3469
0.015223	68.3051
0.0153109	68.2639
0.0153993	68.2229
0.0154882	68.1879
0.0155776	68.1554
0.0156675	68.1229
0.015758	68.0904
0.0158489	68.0579
0.0159404	68.0253
0.0160325	67.9928
0.016125	67.9602
0.0162181	67.9276
0.0163117	67.8949
0.0164059	67.8623
0.0165006	67.8297
0.0165959	67.797
0.0166917	67.7644
0.016788	67.7318
0.016885	67.6991
0.0169824	67.6665
0.0170805	67.624
0.0171791	67.5739
0.0172783	67.5239
0.017378	67.474
0.0174783	67.4251
0.0175792	67.3764
0.0176807	67.3277
0.0177828	67.2792
0.0178855	67.2308
0.0179887	67.1825
0.0180926	67.1343
0.018197	67.0863
0.0183021	67.0449
0.0184077	67.0078
0.018514	66.9707
0.0186209	66.9336
0.0187284	66.8965
0.0188365	66.8594
0.0189452	66.8223
0.0190546	66.7852
0.0191646	66.7481
0.0192752	66.7108
0.0193865	66.6526
0.0194984	66.5879
0.019611	66.5145
0.0197242	66.4413
0.0198381	66.3684
0.0199526	66.2957
0.0200678	66.2232
0.0201837	66.1511
0.0203002	66.0791
0.0204174	66.0074
0.0205353	65.936
0.0206538	65.8648
0.020773	65.7939
0.020893	65.7232
0.0210136	65.6527
0.0211349	65.5825
0.0212569	65.5127
0.0213796	65.4436
0.021503	65.3747
0.0216272	65.3061
0.021752	65.2377
0.0218776	65.1696
0.0220039	65.0917
0.0221309	65.013
0.0222587	64.9346
0.0223872	64.8565
0.0225165	64.7787
0.0226464	64.7012
0.0227772	64.624
0.0229087	64.5471
0.0230409	64.4705
0.0231739	64.3902
0.0233077	64.3023
0.0234423	64.2148
0.0235776	64.1277
0.0237137	64.0409
0.0238506	63.9545
0.0239883	63.8684
0.0241268	63.7828
0.0242661	63.6954
0.0244062	63.6073
0.0245471	63.5186
0.0246888	63.4301
0.0248313	63.3418
0.0249747	63.2539
0.0251189	63.1661
0.0252639	63.0786
0.0254097	62.9914
0.0255564	62.9045
0.025704	62.8178
0.0258523	62.7313
0.0260016	62.6451
0.0261517	62.5592
0.0263027	62.4735
0.0264545	62.3881
0.0266073	62.303
0.0267609	62.2182
0.0269153	62.1336
0.0270707	62.0447
0.027227	61.9524
0.0273842	61.8602
0.0275423	61.7684
0.0277013	61.6768
0.0278612	61.5856
0.0280221	61.4947
0.0281838	61.4041
0.0283465	61.3138
0.0285102	61.2239
0.0286748	61.1343
0.0288403	61.045
0.0290068	60.9561
0.0291743	60.8674
0.0293427	60.779
0.0295121	60.691
0.0296825	60.6032
0.0298538	60.5158
0.0300262	60.4287
0.0301995	60.3419
0.0303739	60.2556
0.0305492	60.1584
0.0307256	60.0588
0.030903	59.9576
0.0310814	59.8526
0.0312608	59.7481
0.0314413	59.644
0.0316228	59.5404
0.0318053	59.4371
0.031989	59.3343
0.0321736	59.2318
0.0323594	59.1298
0.0325462	59.0282
0.0327341	58.927
0.032923	58.8263
0.0331131	58.7259
0.0333043	58.626
0.0334965	58.5266
0.0336899	58.4275
0.0338844	58.3272
0.03408	58.2243
0.0342768	58.1219
0.0344747	58.0199
0.0346737	57.9184
0.0348739	57.8132
0.0350752	57.7078
0.0352777	57.6029
0.0354813	57.4985
0.0356862	57.3945
0.0358922	57.291
0.0360994	57.1879
0.0363078	57.0853
0.0365174	56.9824
0.0367282	56.8718
0.0369403	56.7618
0.0371535	56.6522
0.037368	56.5431
0.0375837	56.4346
0.0378007	56.3265
0.0380189	56.2189
0.0382384	56.1118
0.0384592	56.0052
0.0386812	55.8956
0.0389045	55.7814
0.0391291	55.6678
0.039355	55.5546
0.0395822	55.442
0.0398107	55.3299
0.0400405	55.2184
0.0402717	55.1074
0.0405042	54.9969
0.040738	54.8869
0.0409732	54.7774
0.0412098	54.6685
0.0414477	54.5601
0.0416869	54.4523
0.0419276	54.3451
0.0421697	54.2384
0.0424131	54.1322
0.042658	54.0246
0.0429042	53.9132
0.0431519	53.8024
0.043401	53.692
0.0436516	53.5788
0.0439036	53.4646
0.044157	53.3509
0.044412	53.2378
0.0446684	53.1253
0.0449262	53.0133
0.0451856	52.9018
0.0454465	52.7909
0.0457088	52.6805
0.0459727	52.5707
0.0462381	52.4615
0.046505	52.3484
0.0467735	52.2352
0.0470435	52.1226
0.0473151	52.0106
0.0475883	51.8991
0.047863	51.7881
0.0481393	51.6778
0.0484172	51.566
0.0486968	51.451
0.0489779	51.3323
0.0492606	51.2143
0.049545	51.0969
0.049831	50.98
0.0501187	50.8639
0.0504081	50.7483
0.0506991	50.6333
0.0509918	50.5189
0.0512861	50.4051
0.0515822	50.2918
0.05188	50.1791
0.0521795	50.0669
0.0524807	49.9554
0.0527837	49.8443
0.0530884	49.7339
0.0533949	49.624
0.0537032	49.5146
0.0540132	49.4056
0.054325	49.2937
0.0546387	49.1825
0.0549541	49.0695
0.0552713	48.9558
0.0555904	48.8427
0.0559114	48.7301
0.0562341	48.6182
0.0565588	48.5067
0.0568853	48.3959
0.0572137	48.2856
0.057544	48.1759
0.0578762	48.0668
0.0582103	47.9525
0.0585464	47.8361
0.0588844	47.7203
0.0592243	47.6051
0.0595662	47.4905
0.0599101	47.3765
0.060256	47.263
0.0606038	47.1502
0.0609537	47.0365
0.0613056	46.9205
0.0616595	46.8051
0.0620155	46.688
0.0623735	46.5711
0.0627336	46.4549
0.0630957	46.3392
0.06346	46.2242
0.0638263	46.1098
0.0641948	45.9959
0.0645654	45.8827
0.0649382	45.7701
0.0653131	45.658
0.0656901	45.5466
0.0660693	45.4357
0.0664508	45.3254
0.0668344	45.2158
0.0672202	45.1068
0.0676083	44.9983
0.0679986	44.8869
0.0683912	44.7756
0.068786	44.6648
0.0691831	44.5546
0.0695825	44.4442
0.0699842	44.333
0.0703882	44.2224
0.0707946	44.1123
0.0712033	44.0028
0.0716143	43.8939
0.0720278	43.7855
0.0724436	43.6777
0.0728618	43.5704
0.0732825	43.4613
0.0737055	43.3512
0.074131	43.2417
0.074559	43.1327
0.0749894	43.0244
0.0754223	42.9167
0.0758578	42.8095
0.0762957	42.7027
0.0767361	42.5964
0.0771792	42.4905
0.0776247	42.3786
0.0780728	42.2651
0.0785236	42.1521
0.0789769	42.0397
0.0794328	41.9279
0.0798914	41.8167
0.0803526	41.7061
0.0808165	41.596
0.0812831	41.4865
0.0817523	41.3776
0.0822243	41.2693
0.082699	41.1615
0.0831764	41.0543
0.0836566	40.9478
0.0841395	40.8418
0.0846253	40.7364
0.0851138	40.6315
0.0856052	40.5249
0.0860994	40.4183
0.0865964	40.3123
0.0870964	40.2062
0.0875992	40.0971
0.0881049	39.9886
0.0886135	39.8806
0.0891251	39.7733
0.0896396	39.6664
0.0901571	39.5601
0.0906776	39.4544
0.0912011	39.3491
0.0917276	39.2443
0.0922571	39.14
0.0927897	39.0355
0.0933254	38.9299
0.0938642	38.825
0.0944061	38.7205
0.0949511	38.6166
0.0954993	38.5132
0.0960506	38.4104
0.0966051	38.3081
0.0971628	38.2012
0.0977237	38.0927
0.0982879	37.9839
0.0988553	37.8757
0.099426	37.768
0.1	37.6609
0.100577	37.5545
0.101158	37.4486
0.101742	37.3432
0.102329	37.2384
0.10292	37.1342
0.103514	37.0304
0.104112	36.9272
0.104713	36.8246
0.105317	36.7224
0.105925	36.6208
0.106537	36.5195
0.107152	36.4185
0.107771	36.318
0.108393	36.2171
0.109018	36.1159
0.109648	36.0152
0.110281	35.9134
0.110917	35.8122
0.111558	35.7115
0.112202	35.6113
0.11285	35.5116
0.113501	35.4125
0.114156	35.3139
0.114815	35.2158
0.115478	35.1182
0.116145	35.02
0.116815	34.9145
0.11749	34.8095
0.118168	34.7051
0.11885	34.6012
0.119536	34.4979
0.120226	34.3952
0.120921	34.2929
0.121619	34.1912
0.122321	34.0882
0.123027	33.9854
0.123737	33.8827
0.124451	33.7797
0.12517	33.6772
0.125893	33.5753
0.126619	33.4739
0.12735	33.373
0.128086	33.2727
0.128825	33.1729
0.129569	33.0736
0.130317	32.9748
0.131069	32.8766
0.131826	32.7789
0.132587	32.6816
0.133352	32.585
0.134122	32.4889
0.134896	32.3933
0.135675	32.2962
0.136458	32.1945
0.137246	32.093
0.138038	31.9919
0.138835	31.8913
0.139637	31.7905
0.140443	31.69
0.141254	31.59
0.142069	31.4906
0.142889	31.3917
0.143714	31.2933
0.144544	31.1955
0.145378	31.0986
0.146218	31.0032
0.147062	30.9065
0.147911	30.8103
0.148765	30.7146
0.149624	30.6194
0.150487	30.5248
0.151356	30.4306
0.15223	30.3367
0.153109	30.2429
0.153993	30.1496
0.154882	30.056
0.155776	29.9567
0.156675	29.858
0.15758	29.7598
0.158489	29.6621
0.159404	29.565
0.160325	29.4684
0.16125	29.3722
0.162181	29.2766
0.163117	29.1815
0.164059	29.0869
0.165006	28.9928
0.165959	28.8992
0.166917	28.8061
0.16788	28.7136
0.16885	28.6216
0.169824	28.53
0.170805	28.4387
0.171791	28.3468
0.172783	28.2553
0.17378	28.1644
0.174783	28.0715
0.175792	27.977
0.176807	27.8831
0.177828	27.7896
0.178855	27.6966
0.179887	27.6041
0.180926	27.5122
0.18197	27.4207
0.183021	27.3291
0.184077	27.2377
0.18514	27.1468
0.186209	27.0564
0.187284	26.9665
0.188365	26.877
0.189452	26.7881
0.190546	26.6996
0.191646	26.6115
0.192752	26.524
0.193865	26.4351
0.194984	26.342
0.19611	26.2484
0.197242	26.1553
0.198381	26.0626
0.199526	25.9705
0.200678	25.8828
0.201837	25.798
0.203002	25.7132
0.204174	25.6285
0.205353	25.5438
0.206538	25.4592
0.20773	25.3747
0.20893	25.2902
0.210136	25.2058
0.211349	25.1214
0.212569	24.9455
0.213796	24.8628
0.21503	24.7802
0.216272	24.6976
0.21752	24.6151
0.218776	24.5326
0.220039	24.5977
0.221309	24.5143
0.222587	24.4311
0.223872	24.3479
0.225165	24.2648
0.226464	24.1818
0.227772	24.0989
0.229087	24.0162
0.230409	23.9335
0.231739	23.8509
0.233077	23.7685
0.234423	23.6861
0.235776	23.6039
0.237137	23.5218
0.238506	23.4398
0.239883	23.3579
0.241268	23.2761
0.242661	23.1945
0.244062	23.113
0.245471	23.0316
0.246888	22.9504
0.248313	22.8693
0.249747	22.7883
0.251189	22.7075
0.252639	22.6268
0.254097	22.5463
0.255564	22.4659
0.25704	22.3856
0.258523	22.3055
0.260016	22.2256
0.261517	22.1458
0.263027	22.0661
0.264545	21.9866
0.266073	21.8625
0.267609	21.7842
0.269153	21.706
0.270707	21.628
0.27227	21.5502
0.273842	21.4725
0.275423	21.4564
0.277013	21.3771
0.278612	21.2979
0.280221	21.219
0.281838	21.1402
0.283465	21.0616
0.285102	20.9832
0.286748	20.9049
0.288403	20.8269
0.290068	20.749
0.291743	20.6713
0.293427	20.5938
0.295121	20.5165
0.296825	20.4394
0.298538	20.3624
0.300262	20.2857
0.301995	20.2091
0.303739	20.1328
0.305492	20.0566
0.307256	19.9806
0.30903	19.9048
0.310814	19.8292
0.312608	19.7538
0.314413	19.6786
0.316228	19.6036
0.318053	19.5288
0.31989	19.4313
0.321736	19.3575
0.323594	19.2838
0.325462	19.2103
0.327341	19.137
0.32923	19.1136
0.331131	19.0403
0.333043	18.9673
0.334965	18.8945
0.336899	18.8219
0.338844	18.7495
0.3408	18.6773
0.342768	18.6053
0.344747	18.5335
0.346737	18.462
0.348739	18.3906
0.350752	18.3195
0.352777	18.2486
0.354813	18.1779
0.356862	18.1074
0.358922	18.0372
0.360994	17.9671
0.363078	17.8973
0.365174	17.8277
0.367282	17.7583
0.369403	17.6891
0.371535	17.6201
0.37368	17.5397
0.375837	17.4715
0.378007	17.4035
0.380189	17.3357
0.382384	17.2682
0.384592	17.2185
0.386812	17.151
0.389045	17.0837
0.391291	17.0166
0.39355	16.9498
0.395822	16.8832
0.398107	16.8167
0.400405	16.7505
0.402717	16.6845
0.405042	16.6188
0.40738	16.5532
0.409732	16.4879
0.412098	16.451
0.414477	16.3857
0.416869	16.3206
0.419276	16.2557
0.421697	16.1911
0.424131	16.1266
0.42658	16.0561
0.429042	15.9924
0.431519	15.9289
0.43401	15.8656
0.436516	15.8026
0.439036	15.7398
0.44157	15.6771
0.44412	15.6147
0.446684	15.5525
0.449262	15.4905
0.451856	15.4287
0.454465	15.3672
0.457088	15.3058
0.459727	15.2446
0.462381	15.1837
0.46505	15.1229
0.467735	15.0915
0.470435	15.0307
0.473151	14.9701
0.475883	14.9098
0.47863	14.8496
0.481393	14.7897
0.484172	14.73
0.486968	14.6704
0.489779	14.6111
0.492606	14.552
0.49545	14.493
0.49831	14.4343
0.501187	14.3758
0.504081	14.3175
0.506991	14.2594
0.509918	14.2015
0.512861	14.1437
0.515822	14.0862
0.5188	14.0289
0.521795	13.9718
0.524807	13.9148
0.527837	13.8581
0.530884	13.8016
0.533949	13.7419
0.537032	13.686
0.540132	13.6302
0.54325	13.5746
0.546387	13.5193
0.549541	13.4641
0.552713	13.4582
0.555904	13.4028
0.559114	13.3475
0.562341	13.2924
0.565588	13.2375
0.568853	13.1828
0.572137	13.1283
0.57544	13.074
0.578762	13.0199
0.582103	12.966
0.585464	12.9122
0.588844	12.8587
0.592243	12.8053
0.595662	12.7521
0.599101	12.6991
0.60256	12.6463
0.606038	12.5937
0.609537	12.5413
0.613056	12.4891
